"Time (s)","Linear Acceleration x (m/s^2)","Linear Acceleration y (m/s^2)","Linear Acceleration z (m/s^2)"
1.973751700E-2,3.107190132E-2,5.544996262E-2,3.029079437E-1
2.474439200E-2,5.154943466E-2,2.228212357E-2,5.950260162E-1
2.975543400E-2,7.718968391E-2,-6.264114380E-2,9.063014984E-1
3.477126700E-2,9.056663513E-2,-1.834316254E-1,1.116472244E0
3.979230900E-2,4.733133316E-2,-3.460793495E-1,1.154003143E0
4.481876700E-2,-4.853844643E-2,-5.305347443E-1,1.104854584E0
4.985059000E-2,-1.362011433E-1,-6.796665192E-1,9.418401718E-1
5.488751700E-2,-2.471017838E-1,-8.035240173E-1,7.029876709E-1
5.992908000E-2,-3.330807686E-1,-8.529932499E-1,3.965425491E-1
6.497470500E-2,-3.808512688E-1,-8.511545658E-1,2.581024170E-2
7.002361100E-2,-4.794254303E-1,-8.224484921E-1,-3.707208633E-1
7.507496500E-2,-5.618929863E-1,-7.358982563E-1,-7.165718079E-1
8.012783000E-2,-5.612919331E-1,-6.559355259E-1,-1.027970314E0
8.518126700E-2,-5.174219608E-1,-5.896093845E-1,-1.292226791E0
9.022652800E-2,-4.850921631E-1,-4.899368286E-1,-1.487399101E0
9.525736100E-2,-4.339330196E-1,-4.029483795E-1,-1.682016373E0
1.002881940E-1,-3.161480427E-1,-3.363423347E-1,-1.908931732E0
1.053190280E-1,-1.578338146E-1,-3.247499466E-1,-2.094821930E0
1.103498610E-1,1.693081856E-2,-3.833994865E-1,-2.274171829E0
1.153806940E-1,2.405583858E-1,-4.770872593E-1,-2.415631294E0
1.204115280E-1,3.800659180E-1,-5.221087933E-1,-2.511566162E0
1.254423610E-1,5.416593552E-1,-5.984385014E-1,-2.558939934E0
1.304731940E-1,7.580105066E-1,-7.416667938E-1,-2.536278725E0
1.355040280E-1,1.056375980E0,-9.355247021E-1,-2.450239182E0
1.405348610E-1,1.362250209E0,-1.113812923E0,-2.343790054E0
1.455656940E-1,1.585448027E0,-1.291135073E0,-2.272146225E0
1.505965280E-1,1.684756756E0,-1.435352564E0,-2.210233688E0
1.556273610E-1,1.711978674E0,-1.510643959E0,-2.180316925E0
1.606581940E-1,1.646973133E0,-1.537640572E0,-2.153274536E0
1.656890280E-1,1.525035620E0,-1.526960850E0,-2.147418976E0
1.707198610E-1,1.333774805E0,-1.498199940E0,-2.157333374E0
1.757506940E-1,1.125730038E0,-1.414455891E0,-2.205804825E0
1.807815280E-1,9.052360058E-1,-1.304854870E0,-2.296501637E0
1.858123610E-1,6.533120871E-1,-1.230432034E0,-2.391098022E0
1.908431940E-1,3.749185801E-1,-1.176095009E0,-2.526823044E0
1.958740280E-1,1.448820829E-1,-1.094629765E0,-2.679350376E0
2.009048610E-1,-4.316473007E-2,-1.037782669E0,-2.876404285E0
2.059356940E-1,-2.280368805E-1,-9.673590660E-1,-3.084404945E0
2.109665280E-1,-4.201111794E-1,-9.302785397E-1,-3.251980782E0
2.159973610E-1,-5.925581455E-1,-8.556632996E-1,-3.380372524E0
2.210281940E-1,-7.238030434E-1,-7.772631645E-1,-3.447291851E0
2.260590280E-1,-8.111875057E-1,-7.140350342E-1,-3.454224110E0
2.310898610E-1,-8.423306942E-1,-6.613202095E-1,-3.430490971E0
2.361206940E-1,-8.750650883E-1,-6.192493439E-1,-3.400021076E0
2.411515280E-1,-8.672268391E-1,-5.832724571E-1,-3.348663807E0
2.461823610E-1,-8.902065754E-1,-5.581459999E-1,-3.323612690E0
2.512131940E-1,-8.970162868E-1,-5.249538422E-1,-3.286842346E0
2.562440280E-1,-9.355330467E-1,-4.837162495E-1,-3.224649429E0
2.612748610E-1,-9.584155083E-1,-3.877155781E-1,-3.132773876E0
2.663056940E-1,-8.952009678E-1,-2.707891464E-1,-3.025704861E0
2.713365280E-1,-7.751414776E-1,-1.803529263E-1,-2.950419903E0
2.763673610E-1,-6.316223145E-1,-8.289194107E-2,-2.892046452E0
2.813981940E-1,-5.305266380E-1,-2.068185806E-2,-2.807862759E0
2.864290280E-1,-4.146087170E-1,8.703136444E-2,-2.731215954E0
2.914598610E-1,-2.791562080E-1,1.785438061E-1,-2.647799969E0
2.964906940E-1,-1.148755550E-1,2.401733398E-1,-2.562353611E0
3.015215280E-1,-2.077031136E-2,3.006801605E-1,-2.446506023E0
3.065523610E-1,2.781510353E-2,3.599972725E-1,-2.300644398E0
3.115831940E-1,5.978083611E-2,4.415950775E-1,-2.125129700E0
3.166140280E-1,1.080219746E-1,5.119843483E-1,-1.934464455E0
3.216448610E-1,1.771001816E-1,5.853219032E-1,-1.714514256E0
3.266756940E-1,2.341587543E-1,6.283869743E-1,-1.545521259E0
3.317065280E-1,2.844270468E-1,6.699829102E-1,-1.440662861E0
3.367373610E-1,3.517705202E-1,7.337777615E-1,-1.332847118E0
3.417681940E-1,3.936269283E-1,8.148422241E-1,-1.160727501E0
3.467990280E-1,4.247242212E-1,8.807241917E-1,-9.726104736E-1
3.518298610E-1,4.558335543E-1,9.370439053E-1,-8.205232620E-1
3.568606940E-1,4.925246239E-1,9.655544758E-1,-7.227611542E-1
3.618915800E-1,4.839881659E-1,1.005004883E0,-6.501650810E-1
3.669224650E-1,4.223461151E-1,1.027168512E0,-5.644898415E-1
3.719533510E-1,3.414716721E-1,1.032588005E0,-5.179648399E-1
3.769842360E-1,3.076419830E-1,1.016787767E0,-5.006489754E-1
3.820151220E-1,2.775993347E-1,9.941451550E-1,-5.121541023E-1
3.870460070E-1,2.224396467E-1,9.882297516E-1,-5.001912117E-1
3.920768920E-1,1.179623604E-1,1.003151417E0,-4.698200226E-1
3.971077780E-1,-7.788062096E-3,1.033504486E0,-4.165668488E-1
4.021386630E-1,-1.368755102E-1,1.064405918E0,-2.603816986E-1
4.071695490E-1,-2.516809702E-1,1.062247992E0,-3.093814850E-2
4.122004340E-1,-3.347543478E-1,1.026839733E0,1.763257980E-1
4.172313190E-1,-3.729304075E-1,9.912755489E-1,3.807086945E-1
4.222622050E-1,-3.571299314E-1,9.366314411E-1,5.539684296E-1
4.272930900E-1,-3.587481976E-1,9.150798321E-1,7.392044067E-1
4.323239760E-1,-2.776968479E-1,9.263086319E-1,9.364204407E-1
4.373548610E-1,-1.381678581E-1,9.369134903E-1,1.098261833E0
4.423857470E-1,-1.591551304E-2,9.376368523E-1,1.206310272E0
4.474166320E-1,6.609976292E-2,9.146289825E-1,1.351163864E0
4.524475170E-1,7.532334328E-2,8.685274124E-1,1.513391495E0
4.574784030E-1,3.088712692E-3,8.185818195E-1,1.664410591E0
4.625092880E-1,-1.309401989E-1,7.318460941E-1,1.742726326E0
4.675401740E-1,-2.879796028E-1,6.325771809E-1,1.758595467E0
4.725710590E-1,-4.433706999E-1,5.307216644E-1,1.717430115E0
4.776019440E-1,-5.865049362E-1,4.643337727E-1,1.648400307E0
4.826328300E-1,-7.114038467E-1,4.712080956E-1,1.594548225E0
4.876637150E-1,-7.889252901E-1,5.220994949E-1,1.536907196E0
4.926946010E-1,-8.003742695E-1,6.023929119E-1,1.522894859E0
4.977254860E-1,-7.566987276E-1,6.548433304E-1,1.575644493E0
5.027563720E-1,-6.743245125E-1,6.511368752E-1,1.689533234E0
5.077872570E-1,-5.273507833E-1,5.635037422E-1,1.792472839E0
5.128181420E-1,-3.373137712E-1,4.359848499E-1,1.869872093E0
5.178490280E-1,-1.539460421E-1,2.981591225E-1,1.902495384E0
5.228799130E-1,-4.967319965E-2,1.744494438E-1,1.909392357E0
5.279107990E-1,-4.830574989E-2,3.198766708E-2,1.919086456E0
5.329416840E-1,-1.210595369E-1,-1.000936031E-1,1.959893227E0
5.379725690E-1,-2.530964613E-1,-2.691276073E-1,2.026897430E0
5.430034550E-1,-4.244463444E-1,-4.083204269E-1,2.034745216E0
5.480343400E-1,-5.859436989E-1,-5.419359207E-1,2.074606895E0
5.530652260E-1,-7.406630516E-1,-6.277456284E-1,2.089808464E0
5.580961110E-1,-9.241914749E-1,-6.335017681E-1,2.104892731E0
5.631269970E-1,-1.138204813E0,-5.370650291E-1,2.087283134E0
5.681578820E-1,-1.332165480E0,-3.591957092E-1,2.094737053E0
5.731887670E-1,-1.475608349E0,-1.349859238E-1,2.117982864E0
5.782196530E-1,-1.548428535E0,6.743216515E-2,2.095527649E0
5.832505380E-1,-1.573944330E0,3.183636665E-1,2.013732910E0
5.882813720E-1,-1.575723171E0,4.883725643E-1,1.835207939E0
5.933122050E-1,-1.558542490E0,5.875320435E-1,1.579625130E0
5.983430380E-1,-1.518449545E0,6.260449886E-1,1.294883728E0
6.033738720E-1,-1.485146761E0,5.571913719E-1,9.999532700E-1
6.084047050E-1,-1.489028931E0,4.205677509E-1,7.135038376E-1
6.134355380E-1,-1.479944944E0,2.646584511E-1,5.443334579E-1
6.184663720E-1,-1.427508354E0,8.497500420E-2,4.627027512E-1
6.234972050E-1,-1.334672451E0,-1.375429630E-1,4.249610901E-1
6.285280380E-1,-1.232438564E0,-3.697623014E-1,3.878831863E-1
6.335588720E-1,-1.160690308E0,-5.694117546E-1,3.941373825E-1
6.385897050E-1,-1.138801813E0,-6.520524025E-1,3.959531784E-1
6.436205380E-1,-1.099188209E0,-6.431837082E-1,3.887948990E-1
6.486513720E-1,-1.041151047E0,-5.586421490E-1,3.966913223E-1
6.536822050E-1,-9.827729464E-1,-4.284281731E-1,4.197444916E-1
6.587130380E-1,-9.420736432E-1,-3.060736656E-1,4.675579071E-1
6.637438720E-1,-8.750328422E-1,-2.064714432E-1,4.260864258E-1
6.687747050E-1,-7.857610583E-1,-1.486957073E-1,3.388538361E-1
6.738055380E-1,-6.927562356E-1,-1.134051085E-1,1.682157516E-1
6.788363720E-1,-5.720124841E-1,-1.570746899E-1,-9.001922607E-2
6.838672050E-1,-4.283327460E-1,-2.351723909E-1,-4.068880081E-1
6.888980380E-1,-2.857374549E-1,-3.130135536E-1,-7.061262131E-1
6.939288720E-1,-1.205831170E-1,-3.417805433E-1,-1.002360344E0
6.989597050E-1,5.270588398E-2,-3.634779453E-1,-1.314835548E0
7.039905380E-1,2.198162079E-1,-4.626512527E-1,-1.572332382E0
7.090213720E-1,3.616187871E-1,-6.188322306E-1,-1.851496696E0
7.140522050E-1,3.979031444E-1,-7.975122929E-1,-2.114303589E0
7.190830380E-1,3.969564438E-1,-9.599490762E-1,-2.337204933E0
7.241138720E-1,3.739781678E-1,-1.134456396E0,-2.482529640E0
7.291447050E-1,3.107943535E-1,-1.330405951E0,-2.641207218E0
7.341755380E-1,1.561343819E-1,-1.552302837E0,-2.832223415E0
7.392063720E-1,-4.591841996E-2,-1.771227241E0,-3.031676292E0
7.442372050E-1,-1.949434429E-1,-1.939219475E0,-3.230147362E0
7.492680380E-1,-3.109933734E-1,-2.065288782E0,-3.356551647E0
7.542988720E-1,-3.759692609E-1,-2.082232475E0,-3.430642605E0
7.593297050E-1,-3.864434063E-1,-1.965989828E0,-3.476806164E0
7.643605380E-1,-3.720929623E-1,-1.707275867E0,-3.500147343E0
7.693913720E-1,-3.529331982E-1,-1.344825268E0,-3.500880718E0
7.744222050E-1,-3.335477710E-1,-9.458502531E-1,-3.455365658E0
7.794530380E-1,-3.420345485E-1,-5.296013355E-1,-3.373393536E0
7.844838720E-1,-3.398405910E-1,-1.250176430E-1,-3.274137020E0
7.895147050E-1,-3.413959742E-1,2.342333794E-1,-3.138549805E0
7.945455380E-1,-3.469270766E-1,5.575212240E-1,-2.966739655E0
7.995763720E-1,-3.468934000E-1,8.302621841E-1,-2.749262810E0
8.046072050E-1,-3.555769026E-1,1.042871118E0,-2.524350643E0
8.096380380E-1,-3.876157701E-1,1.171240211E0,-2.253801823E0
8.146688720E-1,-4.296698570E-1,1.219956160E0,-1.980550766E0
8.196997050E-1,-5.166971684E-1,1.093533993E0,-1.680635452E0
8.247305380E-1,-6.255808473E-1,8.162355423E-1,-1.449244976E0
8.297613720E-1,-7.328973413E-1,5.313403606E-1,-1.271574020E0
8.347922050E-1,-8.819760680E-1,2.718003988E-1,-1.170982361E0
8.398230380E-1,-9.820045233E-1,2.744483948E-2,-9.707851410E-1
8.448539240E-1,-1.046977639E0,-1.308530569E-1,-7.714233398E-1
8.498848090E-1,-1.008867621E0,-2.275227308E-1,-5.823736191E-1
8.549156940E-1,-8.563864827E-1,-2.103827000E-1,-3.988437653E-1
8.599465800E-1,-6.119008064E-1,-9.881699085E-2,-1.875524521E-1
8.649774650E-1,-3.267127275E-1,6.393992901E-2,4.652500153E-2
8.700083510E-1,-5.709467828E-2,2.445625067E-1,2.888984680E-1
8.750392360E-1,1.788470745E-1,4.240801334E-1,4.871015549E-1
8.800701220E-1,4.055002928E-1,5.787076950E-1,6.128053665E-1
8.851010070E-1,6.567388773E-1,7.325460911E-1,6.854314804E-1
8.901318920E-1,8.564379215E-1,8.810899258E-1,7.480974197E-1
8.951627780E-1,1.014665365E0,9.913055897E-1,8.722553253E-1
9.001936630E-1,1.155412436E0,1.101525664E0,1.024266243E0
9.052245490E-1,1.278629661E0,1.187885404E0,1.165944099E0
9.102554340E-1,1.379011035E0,1.217043281E0,1.287910461E0
9.152863190E-1,1.465151668E0,1.208233476E0,1.385605812E0
9.203172050E-1,1.406893730E0,1.104505062E0,1.473517418E0
9.253480900E-1,1.313267112E0,1.011491776E0,1.513608932E0
9.303789760E-1,1.240994811E0,9.721920490E-1,1.387098312E0
9.354098610E-1,1.127473950E0,9.103590250E-1,1.237752914E0
9.404407470E-1,9.243554473E-1,7.166041136E-1,1.232393265E0
9.454716320E-1,6.638327241E-1,3.484233022E-1,1.298828125E0
9.505025170E-1,3.687924147E-1,6.622135639E-3,1.436663628E0
9.555334030E-1,1.006764024E-1,-2.714760303E-1,1.674132347E0
9.605642880E-1,-1.840443313E-1,-5.107376575E-1,1.982157707E0
9.655951740E-1,-4.667220414E-1,-6.883808374E-1,2.341334343E0
9.706260590E-1,-6.808416843E-1,-8.150967360E-1,2.722836494E0
9.756569440E-1,-8.459860086E-1,-8.728859425E-1,3.136079788E0
9.806878300E-1,-9.859201908E-1,-8.057348132E-1,3.633318901E0
9.857187150E-1,-1.047144413E0,-6.153174639E-1,4.104640961E0
9.907498610E-1,-1.018932343E0,-3.842321634E-1,4.502647400E0
9.957809550E-1,-9.097371101E-1,-1.230253577E-1,4.813525200E0
1.000811840E0,-6.900548339E-1,1.908984780E-1,5.090250969E0
1.005842674E0,-3.552052975E-1,5.185822248E-1,5.342597961E0
1.010873507E0,6.528902054E-2,7.878735065E-1,5.508805275E0
1.015904340E0,4.651342630E-1,9.752603173E-1,5.594052315E0
1.020935174E0,8.288906217E-1,1.071875453E0,5.522472382E0
1.025966007E0,1.112339258E0,1.083623767E0,5.361469269E0
1.030996840E0,1.356184959E0,9.172717929E-1,4.977831841E0
1.036027674E0,1.577765703E0,6.331725717E-1,4.377129555E0
1.041058507E0,1.766834974E0,3.016124368E-1,3.612521172E0
1.046089340E0,1.919079781E0,-1.257306337E-2,2.837028503E0
1.051120174E0,1.973677635E0,-2.928904295E-1,2.102912903E0
1.056151007E0,1.927762747E0,-5.329877138E-1,1.452713013E0
1.061181840E0,1.745983958E0,-7.267644405E-1,9.860067368E-1
1.066212674E0,1.451460361E0,-8.359520435E-1,7.067699432E-1
1.071243507E0,1.143476486E0,-8.899873495E-1,5.713844299E-1
1.076274340E0,7.864117622E-1,-9.186266661E-1,6.079330444E-1
1.081305174E0,4.767464995E-1,-9.135524035E-1,7.347221375E-1
1.086336007E0,2.144875228E-1,-9.192566872E-1,9.229021072E-1
1.091366840E0,-2.045363188E-2,-9.274792671E-1,1.057926178E0
1.096397674E0,-2.054525018E-1,-9.491110444E-1,1.159237862E0
1.101428507E0,-3.233594298E-1,-9.997073412E-1,1.279515266E0
1.106459340E0,-3.481042385E-1,-1.046705484E0,1.347181320E0
1.111490174E0,-3.058970571E-1,-1.095942378E0,1.414924622E0
1.116521007E0,-2.367764115E-1,-1.119636536E0,1.454136848E0
1.121551840E0,-1.610594988E-1,-1.118843794E0,1.450668335E0
1.126582674E0,-5.540698767E-2,-1.056354046E0,1.438135147E0
1.131613507E0,4.166281223E-2,-9.471734762E-1,1.454752922E0
1.136644340E0,1.447661519E-1,-8.442667723E-1,1.462333679E0
1.141675174E0,2.782999873E-1,-7.811338305E-1,1.341835976E0
1.146706007E0,3.859824240E-1,-7.624689341E-1,1.012922287E0
1.151736840E0,5.356837511E-1,-8.020378351E-1,6.339197159E-1
1.156767674E0,7.468633652E-1,-8.511663675E-1,2.717933655E-1
1.161798507E0,1.014389396E0,-8.801500201E-1,-6.408977509E-2
1.166829340E0,1.318401814E0,-9.259347320E-1,-4.407730103E-1
1.171860174E0,1.600764871E0,-9.729029536E-1,-8.344640732E-1
1.176891007E0,1.885135531E0,-9.959262609E-1,-1.269146919E0
1.181921840E0,2.152067900E0,-1.012798071E0,-1.659096718E0
1.186952674E0,2.344333172E0,-9.793215990E-1,-1.976158619E0
1.191983507E0,2.434255362E0,-9.660666585E-1,-2.249462128E0
1.197014340E0,2.370968819E0,-1.028823256E0,-2.651067257E0
1.202045174E0,2.209365606E0,-1.108827591E0,-3.008957386E0
1.207076007E0,1.985091090E0,-1.138408184E0,-3.232834816E0
1.212106840E0,1.662088037E0,-1.117687106E0,-3.361365318E0
1.217137674E0,1.304316998E0,-1.113596201E0,-3.480719566E0
1.222168559E0,9.652736187E-1,-1.126393557E0,-3.581280231E0
1.227199444E0,6.592224836E-1,-1.146690845E0,-3.658283710E0
1.232230330E0,3.854528368E-1,-1.103452921E0,-3.659250736E0
1.237261215E0,9.050309658E-2,-1.016905189E0,-3.593840122E0
1.242292101E0,-1.502475142E-1,-9.072418809E-1,-3.533659458E0
1.247322986E0,-3.432646394E-1,-7.610245943E-1,-3.440427303E0
1.252353872E0,-4.667116404E-1,-5.984115601E-1,-3.295121193E0
1.257384757E0,-5.467932224E-1,-3.872187138E-1,-3.050222397E0
1.262415642E0,-5.142791271E-1,-1.287589073E-1,-2.644152164E0
1.267446528E0,-3.857444525E-1,8.496665955E-2,-2.201583862E0
1.272477413E0,-2.247644663E-1,2.052809000E-1,-1.818048000E0
1.277508299E0,-1.129943132E-1,2.839465141E-1,-1.517098427E0
1.282539184E0,-4.536306858E-2,3.678004742E-1,-1.217201233E0
1.287570069E0,1.176559925E-2,4.606583118E-1,-9.897756577E-1
1.292600955E0,4.359722137E-2,4.906405210E-1,-8.966121674E-1
1.297631840E0,2.573025227E-2,4.916317463E-1,-9.325923920E-1
1.302662726E0,-7.086884975E-2,5.023977757E-1,-1.040178299E0
1.307693611E0,-2.132428885E-1,4.997953176E-1,-1.190723419E0
1.312724497E0,-3.348248005E-1,4.418355227E-1,-1.360423088E0
1.317755382E0,-5.096671581E-1,3.005018234E-1,-1.505982399E0
1.322786267E0,-6.396783590E-1,1.615557671E-1,-1.579325676E0
1.327817153E0,-6.482658386E-1,1.057281494E-1,-1.623490810E0
1.332848038E0,-4.177714586E-1,2.425757647E-1,-1.624423504E0
1.337878924E0,-2.367247343E-1,2.616358995E-1,-1.630181789E0
1.342909809E0,-1.473778486E-1,2.311241627E-1,-1.588329792E0
1.347940694E0,-9.133064747E-2,1.858627796E-1,-1.518210411E0
1.352971580E0,1.790642738E-2,2.170622349E-1,-1.362670898E0
1.358002465E0,3.156152964E-1,3.049876690E-1,-1.126435280E0
1.363033351E0,7.028559446E-1,3.677217960E-1,-9.334363937E-1
1.368064236E0,9.797445536E-1,4.621434212E-1,-8.262338638E-1
1.373095122E0,1.089064121E0,5.736007690E-1,-6.995248795E-1
1.378126007E0,1.087382555E0,7.212696075E-1,-5.439786911E-1
1.383156892E0,1.117141485E0,8.956100941E-1,-4.361248016E-1
1.388187778E0,1.092098117E0,1.039450169E0,-3.090028763E-1
1.393218663E0,1.037812471E0,1.119916677E0,-3.152751923E-1
1.398249549E0,9.043120742E-1,1.080225229E0,-4.447698593E-1
1.403280434E0,8.183784485E-1,9.308979511E-1,-6.302404404E-1
1.408311319E0,8.248136640E-1,7.729215622E-1,-8.762960434E-1
1.413342205E0,8.197994232E-1,6.259653568E-1,-1.058815956E0
1.418373090E0,7.418493629E-1,4.762375355E-1,-1.254591942E0
1.423403976E0,6.095510721E-1,3.104343414E-1,-1.387655258E0
1.428434861E0,4.507209361E-1,2.012200356E-1,-1.415719509E0
1.433465747E0,3.263417184E-1,1.822750568E-1,-1.334657669E0
1.438496632E0,2.067977488E-1,2.297956944E-1,-1.159377098E0
1.443527517E0,8.142203093E-2,3.099594116E-1,-9.379711151E-1
1.448558403E0,4.954740405E-2,4.174044132E-1,-6.896190643E-1
1.453589288E0,1.238842905E-1,5.657982826E-1,-3.904809952E-1
1.458620174E0,3.071581423E-1,7.214138508E-1,-6.941890717E-2
1.463651059E0,5.456765294E-1,7.838952541E-1,1.828050613E-1
1.468681944E0,7.202609777E-1,8.200483322E-1,3.617630005E-1
1.473712830E0,7.886602879E-1,7.963821888E-1,4.630117416E-1
1.478743715E0,7.233363390E-1,7.890098095E-1,6.253843307E-1
1.483774601E0,5.628582239E-1,7.783257961E-1,8.726720810E-1
1.488805486E0,3.121244609E-1,7.589530945E-1,1.166596413E0
1.493836372E0,-2.348160744E-2,7.494735718E-1,1.421290398E0
1.498867257E0,-4.051263928E-1,7.968437672E-1,1.713500977E0
1.503898142E0,-7.465347648E-1,8.526654243E-1,1.952604294E0
1.508929028E0,-1.038626909E0,8.730723858E-1,2.077004433E0
1.513959913E0,-1.200971127E0,8.387119770E-1,2.039453506E0
1.518990799E0,-1.158758879E0,7.876660824E-1,1.974138260E0
1.524021684E0,-9.855838418E-1,7.056233883E-1,1.852446556E0
1.529052569E0,-6.783706546E-1,6.217017174E-1,1.631408691E0
1.534083455E0,-3.766450286E-1,5.510172844E-1,1.354008675E0
1.539114340E0,-1.281573772E-1,5.325610638E-1,1.134707451E0
1.544145226E0,1.722952127E-1,5.671789646E-1,1.006406784E0
1.549176111E0,5.004299283E-1,5.982010365E-1,1.040151596E0
1.554206997E0,7.553669810E-1,5.213923454E-1,1.034699440E0
1.559237882E0,7.984226942E-1,3.616681099E-1,9.135875702E-1
1.564268767E0,6.546175480E-1,1.725764275E-1,7.629165649E-1
1.569299653E0,4.681746364E-1,7.878208160E-2,8.070278168E-1
1.574330538E0,2.541075945E-1,2.786564827E-2,1.026161194E0
1.579361424E0,-5.353295803E-2,-4.729938507E-2,1.305357933E0
1.584392309E0,-4.203197062E-1,-1.756479740E-1,1.549173355E0
1.589423194E0,-7.402852178E-1,-2.814512253E-1,1.858304024E0
1.594454080E0,-9.078941345E-1,-3.271408081E-1,2.270971298E0
1.599484965E0,-9.031375051E-1,-3.570067883E-1,2.663172722E0
1.604515851E0,-8.012037277E-1,-4.101834297E-1,2.825263023E0
1.609546736E0,-7.100574970E-1,-5.018742085E-1,2.848947525E0
1.614577622E0,-5.893036127E-1,-6.096160412E-1,2.844862938E0
1.619608455E0,-4.613296688E-1,-7.584569454E-1,2.741778374E0
1.624639288E0,-3.966271877E-1,-9.348840714E-1,2.602237701E0
1.629670122E0,-4.042914212E-1,-1.091658354E0,2.455081940E0
1.634700955E0,-4.701028168E-1,-1.238917589E0,2.228834152E0
1.639731788E0,-5.852764249E-1,-1.333743334E0,1.933268547E0
1.644762622E0,-7.134715915E-1,-1.347308159E0,1.635341644E0
1.649793455E0,-8.950089216E-1,-1.269905329E0,1.296779633E0
1.654824288E0,-1.103593588E0,-1.163252950E0,8.650445938E-1
1.659855122E0,-1.346799254E0,-1.021891117E0,3.879556656E-1
1.664885955E0,-1.517429113E0,-8.879086971E-1,-7.734870911E-2
1.669916788E0,-1.642289400E0,-7.360796928E-1,-4.406070709E-1
1.674947622E0,-1.675050378E0,-5.793991089E-1,-6.452732086E-1
1.679978455E0,-1.658939242E0,-4.840507507E-1,-7.540807724E-1
